#Empty integrating sphere. Lambertian reflectance. No ports for fluid.
#Length units in [mm]
#Reflectivity of interior wall: rho = 0.95
#Radius of sphere: R = 0.5
#Refractive index interior medium: n = 1
#
#Source fiber:
# - core diameter: 2*a_s = 0.105
# - clad diameter: 2*b_s = 0.125
# - numerical aperture: NA_s = 0.22
#
#Pick-up fiber:
# - core diameter: 2*a_p = 0.105
# - clad diameter: 2*b_p = 0.125
# - numerical aperture: NA_p = 0.22
#
#Entrance radius: r_e = 2*b_p = 0.125
#Number of photons: N = 1000000
#Number of averages: N_avg = 100
#Number of alpha-values: N_R = 100
#Delta alpha: d_alpha = 0.01
#Seed: 7002
#
#alpha <eps_c> <eps_e> <eps_w> <eps_i> std_eps_c std_eps_e std_eps_w std_eps_i <<path>> std<path> <std_path> <<std_path>>
0.01000 0.0032861400 0.2047307700 0.6946509500 0.0973321400 0.0000638943 0.0003926588 0.0004704010 0.0003221697 6.5859403396 0.1294418224 7.8779926469 0.2242553280
0.02000 0.0030886600 0.1853055100 0.6332783800 0.1783274500 0.0000622412 0.0003556762 0.0004288543 0.0003926515 6.0209732412 0.1338611441 7.1237259719 0.2346216435
0.03000 0.0029134500 0.1687922900 0.5812842600 0.2470100000 0.0000577884 0.0003978396 0.0005228698 0.0003906731 5.5625294986 0.1127038841 6.5146082411 0.1997282189
0.04000 0.0027649600 0.1546226400 0.5367649100 0.3058474900 0.0000593398 0.0003432804 0.0005078420 0.0005133882 5.1805868494 0.1214356415 5.9480377686 0.2064003093
0.05000 0.0026294100 0.1424526300 0.4980730900 0.3568448700 0.0000528423 0.0003667311 0.0004593451 0.0004974315 4.8585532016 0.1168158088 5.5188836975 0.2331781598
0.06000 0.0025106700 0.1317098200 0.4643349100 0.4014446000 0.0000474235 0.0003131281 0.0005087637 0.0004933835 4.5461042533 0.0954429838 5.0821046032 0.1743759975
0.07000 0.0023974600 0.1223058200 0.4344992700 0.4407974500 0.0000459296 0.0003292782 0.0005252082 0.0004899457 4.3366849563 0.1040545002 4.7521206976 0.1798112829
0.08000 0.0022983500 0.1140094100 0.4078731200 0.4758191200 0.0000469686 0.0003584046 0.0005053690 0.0005187106 4.1041836127 0.1016838793 4.3926368169 0.1847625146
0.09000 0.0022139800 0.1065421600 0.3842411900 0.5070026700 0.0000465670 0.0002984823 0.0004959713 0.0004993318 3.9283055156 0.0866543656 4.0958983884 0.1709549891
0.10000 0.0021209000 0.0998433100 0.3628326100 0.5352031800 0.0000490591 0.0003013794 0.0005113551 0.0005619150 3.7667169040 0.0790298185 3.8542585373 0.1515659597
0.11000 0.0020426700 0.0937691100 0.3437207200 0.5604675000 0.0000490712 0.0002739184 0.0004638148 0.0004799494 3.6489250816 0.0819685332 3.6713237980 0.1700393714
0.12000 0.0019712800 0.0882931100 0.3261984200 0.5835371900 0.0000448806 0.0003004036 0.0005013049 0.0005176308 3.5097087952 0.0806386334 3.4357210691 0.1651835917
0.13000 0.0019023800 0.0833430300 0.3101035600 0.6046510300 0.0000427284 0.0002624400 0.0004826852 0.0005040998 3.3967199117 0.0698470248 3.2541964996 0.1570845844
0.14000 0.0018486100 0.0787834800 0.2954256100 0.6239423000 0.0000401595 0.0002551654 0.0004340605 0.0004429045 3.2924757058 0.0772591527 3.0985205195 0.1576916089
0.15000 0.0017824300 0.0745450100 0.2819415300 0.6417310300 0.0000432464 0.0002551371 0.0004395931 0.0004478777 3.1996787206 0.0741039689 2.9040340824 0.1603231516
0.16000 0.0017204300 0.0707158600 0.2694715700 0.6580921400 0.0000432270 0.0002586004 0.0004046360 0.0004003701 3.1213546557 0.0621510856 2.7834231516 0.1361995895
0.17000 0.0016778500 0.0671190600 0.2579909100 0.6732121800 0.0000388832 0.0003016002 0.0003905144 0.0003619796 3.0532529776 0.0659472423 2.6686667874 0.1525076307
0.18000 0.0016192400 0.0638599600 0.2473075100 0.6872132900 0.0000405812 0.0002425941 0.0003972961 0.0004357123 2.9816181941 0.0673856789 2.5196692835 0.1641447174
0.19000 0.0015814500 0.0607813300 0.2373360000 0.7003012200 0.0000400016 0.0002196091 0.0004236872 0.0004639370 2.9319464978 0.0580486499 2.4348985483 0.1345002588
0.20000 0.0015368200 0.0579614600 0.2280170000 0.7124847200 0.0000397582 0.0002115215 0.0004071151 0.0004427917 2.8525362747 0.0591891701 2.2862652127 0.1413527054
0.21000 0.0014903100 0.0553065200 0.2193534500 0.7238497200 0.0000363426 0.0002436131 0.0004363067 0.0004309150 2.8216969896 0.0561794750 2.2375575129 0.1338154442
0.22000 0.0014469100 0.0528001100 0.2112544200 0.7344985600 0.0000325955 0.0001979885 0.0004104036 0.0004751328 2.7667033183 0.0567462212 2.1376565588 0.1319690205
0.23000 0.0014072600 0.0504952200 0.2035897100 0.7445078100 0.0000360949 0.0002108181 0.0004126010 0.0004227781 2.7250037896 0.0516441215 2.0402546867 0.1294789012
0.24000 0.0013723200 0.0483074500 0.1964482600 0.7538719700 0.0000371222 0.0002072215 0.0004027335 0.0004700848 2.6792492631 0.0498730956 1.9687456174 0.1289209062
0.25000 0.0013438000 0.0462847000 0.1897131300 0.7626583700 0.0000358126 0.0002167527 0.0004086782 0.0004465221 2.6399871431 0.0472392790 1.8772531430 0.1153263179
0.26000 0.0013011800 0.0443636300 0.1833722200 0.7709629700 0.0000432307 0.0002002249 0.0003855145 0.0004278519 2.6196046691 0.0478083644 1.8367170365 0.1112150485
0.27000 0.0012608100 0.0425554600 0.1772658800 0.7789178500 0.0000374812 0.0001934953 0.0004139050 0.0004190618 2.5815153642 0.0425336853 1.7553725358 0.1005523871
0.28000 0.0012434800 0.0409022100 0.1716087800 0.7862455300 0.0000405379 0.0001958960 0.0003774298 0.0004093655 2.5537359813 0.0457419269 1.6994835358 0.1180385329
0.29000 0.0012021000 0.0392526700 0.1661718800 0.7933733500 0.0000374337 0.0002025979 0.0003981093 0.0003961241 2.5197059806 0.0453213560 1.6288959752 0.1255676885
0.30000 0.0011743800 0.0377266100 0.1610161400 0.8000828700 0.0000391389 0.0001867572 0.0003731576 0.0004172858 2.5030357545 0.0479847780 1.6046419920 0.1236318825
0.31000 0.0011483800 0.0362813900 0.1561453000 0.8064249300 0.0000346097 0.0002045883 0.0003736248 0.0004377526 2.4746950226 0.0506338124 1.5294426051 0.1212931957
0.32000 0.0011225000 0.0349153800 0.1515091900 0.8124529300 0.0000372893 0.0001876970 0.0003275403 0.0003232761 2.4529431253 0.0459728666 1.4855895737 0.1091079432
0.33000 0.0010910700 0.0336039500 0.1471300800 0.8181749000 0.0000332044 0.0001823182 0.0003408349 0.0003820558 2.4317136227 0.0358239914 1.4407536893 0.1045042466
0.34000 0.0010599500 0.0323696400 0.1428550000 0.8237154100 0.0000331472 0.0001534373 0.0003386048 0.0003450382 2.4076674650 0.0438351693 1.3847933318 0.1143051803
0.35000 0.0010391300 0.0311995800 0.1388497900 0.8289115000 0.0000323643 0.0001790963 0.0003506845 0.0003621057 2.3946669343 0.0394253263 1.3667622661 0.1090150707
0.36000 0.0010130100 0.0300833300 0.1350318800 0.8338717800 0.0000320386 0.0001555074 0.0003495243 0.0003459087 2.3745316376 0.0383916725 1.3105520313 0.0920155122
0.37000 0.0009915400 0.0290265600 0.1313015900 0.8386803100 0.0000316612 0.0001623770 0.0003810392 0.0004130197 2.3512979937 0.0385409220 1.2569293766 0.1070269130
0.38000 0.0009694500 0.0279963100 0.1277860500 0.8432481900 0.0000323502 0.0001610154 0.0003324463 0.0003498636 2.3386933814 0.0400175640 1.2274219252 0.1039270625
0.39000 0.0009439500 0.0270278100 0.1244225300 0.8476057100 0.0000325568 0.0001817281 0.0003258657 0.0003699084 2.3272349319 0.0371194844 1.2012983280 0.1007425075
0.40000 0.0009200000 0.0260901700 0.1211553500 0.8518344800 0.0000310197 0.0001587725 0.0003076571 0.0003423188 2.3103013575 0.0414046812 1.1585740605 0.1136376013
0.41000 0.0009013000 0.0252290600 0.1181573100 0.8557123300 0.0000289923 0.0001706761 0.0003277622 0.0003549917 2.2987967953 0.0354159672 1.1305254823 0.1018006210
0.42000 0.0008794500 0.0243892700 0.1151050100 0.8596262700 0.0000292476 0.0001643722 0.0002945467 0.0003563514 2.2859417225 0.0342247404 1.0994365778 0.1050206709
0.43000 0.0008600800 0.0235705200 0.1122711300 0.8632982700 0.0000300477 0.0001490733 0.0003296192 0.0003341848 2.2690676684 0.0370553893 1.0660945289 0.1166293373
0.44000 0.0008443500 0.0227858700 0.1094918200 0.8668779600 0.0000324125 0.0001561488 0.0002917445 0.0002936038 2.2581652547 0.0344830849 1.0302282611 0.0922154387
0.45000 0.0008282400 0.0220738300 0.1068629300 0.8702350000 0.0000265250 0.0001461713 0.0003232165 0.0003530388 2.2564700167 0.0377221322 1.0322474824 0.1070374896
0.46000 0.0008043100 0.0213918600 0.1042735400 0.8735302900 0.0000273912 0.0001460163 0.0002863258 0.0003039694 2.2376473809 0.0330009477 0.9769901590 0.0911976548
0.47000 0.0007881600 0.0206495000 0.1018141800 0.8767481600 0.0000245927 0.0001401730 0.0002613194 0.0002927615 2.2258363909 0.0347774886 0.9419496418 0.1097101979
0.48000 0.0007725800 0.0200321500 0.0994492900 0.8797459800 0.0000281612 0.0001385331 0.0003025210 0.0003195340 2.2246403207 0.0401736743 0.9526768541 0.1175627845
0.49000 0.0007570200 0.0193684200 0.0971525500 0.8827220100 0.0000276665 0.0001413182 0.0002864527 0.0003219574 2.2107668487 0.0322746075 0.9305961283 0.1053512952
0.50000 0.0007382300 0.0188012800 0.0949726700 0.8854878200 0.0000278266 0.0001426085 0.0003134328 0.0003149851 2.2049822471 0.0343292337 0.8979843948 0.1025129026
0.51000 0.0007198900 0.0182204200 0.0928277200 0.8882319700 0.0000271185 0.0001169243 0.0003127123 0.0003412668 2.1977322871 0.0362257525 0.8882279891 0.1018035201
0.52000 0.0007050100 0.0176465300 0.0907143400 0.8909341200 0.0000271530 0.0001369620 0.0002557771 0.0002764225 2.1848041862 0.0325549993 0.8436009093 0.0965228672
0.53000 0.0006876400 0.0170904500 0.0887246400 0.8934972700 0.0000274567 0.0001307857 0.0002907075 0.0002881986 2.1797300363 0.0313247980 0.8344177530 0.0974482244
0.54000 0.0006703600 0.0165919100 0.0868055800 0.8959321500 0.0000251772 0.0001301907 0.0002619540 0.0002904172 2.1717021357 0.0322252460 0.8037735778 0.0959616687
0.55000 0.0006587900 0.0160803800 0.0849796500 0.8982811800 0.0000264584 0.0001302196 0.0002716363 0.0003028552 2.1671501082 0.0331904526 0.8009517083 0.1029135416
0.56000 0.0006466500 0.0156162500 0.0831263700 0.9006107300 0.0000257601 0.0001320966 0.0002502488 0.0002949848 2.1554552113 0.0283614290 0.7705091673 0.0933796407
0.57000 0.0006357900 0.0151665200 0.0813990900 0.9027986000 0.0000254393 0.0001048198 0.0002815720 0.0002799213 2.1561005646 0.0293019406 0.7700637576 0.0954401164
0.58000 0.0006178200 0.0147013500 0.0796794900 0.9050013400 0.0000260824 0.0001291043 0.0002830758 0.0002982306 2.1490493177 0.0290060276 0.7604942314 0.0969965857
0.59000 0.0006024800 0.0142926800 0.0781162900 0.9069885500 0.0000229124 0.0001191540 0.0002636220 0.0002822582 2.1425742320 0.0267476296 0.7236538933 0.0923850204
0.60000 0.0005946400 0.0138971800 0.0764404400 0.9090677400 0.0000232811 0.0001183620 0.0002704458 0.0002929081 2.1346275394 0.0257001166 0.7081544786 0.0873673692
0.61000 0.0005791500 0.0134608200 0.0748985500 0.9110614800 0.0000242180 0.0001088969 0.0002300748 0.0002658676 2.1294054648 0.0305723129 0.6965620621 0.0995682717
0.62000 0.0005665400 0.0130860400 0.0734377500 0.9129096700 0.0000238846 0.0001139732 0.0002549385 0.0002851456 2.1247933293 0.0283881705 0.6796381901 0.0942184624
0.63000 0.0005527600 0.0127055500 0.0718930800 0.9148486100 0.0000210757 0.0001138756 0.0002671126 0.0002944152 2.1225718721 0.0297336276 0.6672614966 0.0927536777
0.64000 0.0005389700 0.0123563100 0.0705745800 0.9165301400 0.0000217471 0.0001281957 0.0002231669 0.0002492227 2.1165289704 0.0278182585 0.6500334228 0.0898006616
0.65000 0.0005309300 0.0120009700 0.0691404800 0.9183276200 0.0000232171 0.0001115709 0.0002386904 0.0002731648 2.1179581307 0.0280596743 0.6574579158 0.1010828802
0.66000 0.0005220400 0.0116613100 0.0678519700 0.9199646800 0.0000232409 0.0000995964 0.0002539844 0.0002652332 2.1081977312 0.0270225430 0.6306757353 0.0871125889
0.67000 0.0005111600 0.0113441000 0.0664950000 0.9216497400 0.0000221614 0.0001153022 0.0002287541 0.0002588733 2.1050855967 0.0270853829 0.6215014643 0.0883959199
0.68000 0.0005019800 0.0110367600 0.0651834600 0.9232778000 0.0000206828 0.0001070492 0.0002160407 0.0002389441 2.0978401129 0.0273311350 0.5986795119 0.0911372031
0.69000 0.0004853600 0.0107291900 0.0640194000 0.9247660500 0.0000221572 0.0001040301 0.0002259678 0.0002523867 2.1014528819 0.0251255174 0.6173121216 0.0886082608
0.70000 0.0004773000 0.0104318100 0.0628188100 0.9262720800 0.0000216695 0.0001084057 0.0002422734 0.0002696719 2.0981905684 0.0296757837 0.6038376017 0.1062085178
0.71000 0.0004659300 0.0101425100 0.0616300700 0.9277614900 0.0000226298 0.0001053956 0.0002523050 0.0002871683 2.0904449375 0.0284284707 0.5718977207 0.1048941991
0.72000 0.0004564000 0.0098511200 0.0605008000 0.9291916800 0.0000233398 0.0001045812 0.0002229400 0.0002548425 2.0850759455 0.0263724066 0.5624240367 0.0960361883
0.73000 0.0004496200 0.0095910600 0.0594034200 0.9305559000 0.0000202469 0.0001054028 0.0002347796 0.0002625322 2.0858733829 0.0252043391 0.5651743337 0.0939600255
0.74000 0.0004366900 0.0093457200 0.0583344300 0.9318831600 0.0000185253 0.0000981700 0.0002184317 0.0002627119 2.0757463347 0.0255552977 0.5262586770 0.0857718163
0.75000 0.0004297900 0.0090929500 0.0572519900 0.9332252700 0.0000224375 0.0001015810 0.0002522199 0.0002613250 2.0788247034 0.0258965333 0.5387211244 0.0890994838
0.76000 0.0004250800 0.0088393500 0.0562286900 0.9345068800 0.0000185754 0.0001050666 0.0002172841 0.0002226275 2.0784000750 0.0254648876 0.5448141154 0.0911912091
0.77000 0.0004104400 0.0086266700 0.0552715000 0.9356913900 0.0000202910 0.0000894791 0.0002375774 0.0002468824 2.0744924785 0.0277233139 0.5303269384 0.0951572478
0.78000 0.0004023500 0.0083775500 0.0542434300 0.9369766700 0.0000189856 0.0000918558 0.0002493938 0.0002663399 2.0698493137 0.0228370681 0.5131787278 0.0831109055
0.79000 0.0003944200 0.0081370600 0.0533381300 0.9381303900 0.0000189525 0.0000823296 0.0002056338 0.0002179804 2.0676071236 0.0288461176 0.4986319328 0.0996437487
0.80000 0.0003897900 0.0079576000 0.0524202900 0.9392323200 0.0000196017 0.0000937615 0.0002435586 0.0002558726 2.0643474383 0.0214531320 0.4860514114 0.0755098039
0.81000 0.0003782400 0.0077436000 0.0514897200 0.9403884400 0.0000196490 0.0000785514 0.0001828912 0.0002053665 2.0664498681 0.0232901132 0.5064973729 0.0881859357
0.82000 0.0003732400 0.0075442400 0.0506111700 0.9414713500 0.0000193632 0.0000873781 0.0002137465 0.0002353449 2.0605718123 0.0273256716 0.4864986485 0.0930802037
0.83000 0.0003644000 0.0073466900 0.0497171900 0.9425717200 0.0000186932 0.0000816453 0.0002292986 0.0002394571 2.0597649449 0.0281884312 0.4780114063 0.1038908803
0.84000 0.0003565800 0.0071692500 0.0488671200 0.9436070500 0.0000193762 0.0000733845 0.0002112760 0.0002381205 2.0611384238 0.0258545565 0.4908168445 0.0980255759
0.85000 0.0003469700 0.0069542600 0.0480439800 0.9446547900 0.0000197829 0.0000855014 0.0002038511 0.0002161076 2.0566810744 0.0260509149 0.4767706581 0.1062451377
0.86000 0.0003443800 0.0067808000 0.0472418000 0.9456330200 0.0000184395 0.0000791627 0.0002138325 0.0002296842 2.0508524496 0.0227818178 0.4483900818 0.0946485590
0.87000 0.0003365700 0.0066089300 0.0464838100 0.9465706900 0.0000176167 0.0000760617 0.0002000373 0.0002118922 2.0500542582 0.0285407755 0.4457076089 0.1097220979
0.88000 0.0003293100 0.0064502400 0.0457068500 0.9475136000 0.0000197232 0.0000794195 0.0001914979 0.0002162754 2.0417434154 0.0225660924 0.4143773179 0.0885252457
0.89000 0.0003231200 0.0062786200 0.0449535500 0.9484447100 0.0000195894 0.0000767666 0.0001733847 0.0001867806 2.0487398678 0.0238694606 0.4405762295 0.0914439859
0.90000 0.0003189100 0.0061325500 0.0442430300 0.9493055100 0.0000165182 0.0000818865 0.0001933783 0.0001963435 2.0442490795 0.0285963509 0.4180144958 0.1080470392
0.91000 0.0003082800 0.0059652400 0.0435193000 0.9502071800 0.0000178371 0.0000805994 0.0002011727 0.0002209018 2.0426688991 0.0209351285 0.4115554496 0.0783516346
0.92000 0.0003051200 0.0058238300 0.0428360700 0.9510349800 0.0000167665 0.0000730186 0.0001719894 0.0001936026 2.0404212466 0.0244239029 0.4141690577 0.0920548442
0.93000 0.0002980800 0.0056772500 0.0421046700 0.9519200000 0.0000150492 0.0000755568 0.0002024640 0.0002133720 2.0376458547 0.0210722446 0.3940985278 0.0805823261
0.94000 0.0002895100 0.0055431200 0.0414579500 0.9527094200 0.0000162241 0.0000748805 0.0002013428 0.0002045287 2.0398435562 0.0247540693 0.4039737268 0.0962671451
0.95000 0.0002843500 0.0053961600 0.0407577800 0.9535617100 0.0000168351 0.0000723267 0.0002049338 0.0002176724 2.0318884374 0.0238165394 0.3765399837 0.0945356702
0.96000 0.0002830400 0.0052593000 0.0401336000 0.9543240600 0.0000149888 0.0000741156 0.0001734759 0.0001978335 2.0332819583 0.0234110450 0.3812295873 0.0904096274
0.97000 0.0002732900 0.0051304200 0.0394488900 0.9551474000 0.0000158811 0.0000818587 0.0001838138 0.0001940077 2.0309689369 0.0222235512 0.3717320891 0.0877849744
0.98000 0.0002692300 0.0050047300 0.0388757400 0.9558503000 0.0000162530 0.0000589495 0.0001679219 0.0001818067 2.0296051369 0.0222877358 0.3718770914 0.0927617324
0.99000 0.0002615200 0.0048903700 0.0382580400 0.9565900700 0.0000180921 0.0000681707 0.0002047308 0.0002152924 2.0281507264 0.0220721998 0.3605543001 0.0924718050
1.00000 0.0002574900 0.0047597500 0.0376713000 0.9573114600 0.0000159864 0.0000692271 0.0002105426 0.0002203379 2.0302197808 0.0243029226 0.3685641037 0.0988290003
