#Empty integrating sphere. Lambertian reflectance. No ports for fluid.
#Length units in [mm]
#Reflectivity of interior wall: rho = 0.99
#Radius of sphere: R = 0.3
#Refractive index interior medium: n = 1
#
#Source fiber:
# - core diameter: 2*a_s = 0.105
# - clad diameter: 2*b_s = 0.125
# - numerical aperture: NA_s = 0.22
#
#Pick-up fiber:
# - core diameter: 2*a_p = 0.105
# - clad diameter: 2*b_p = 0.125
# - numerical aperture: NA_p = 0.5
#
#Entrance radius: r_e = 2*b_p = 0.125
#Number of photons: N = 100000
#Number of averages: N_avg = 20
#Number of alpha-values: N_R = 100
#Delta alpha: d_alpha = 0.01
#Seed: 1002
#
#alpha <eps_c> <eps_e> <eps_w> std_eps_c std_eps_e std_eps_w <<path>> std<path> <std_path> <<std_path>>
0.05000 0.0308850000 0.5509565000 0.4181585000 0.0006522229 0.0017192724 0.0016174615 5.2119694362 0.1161713683 5.0992198264 0.1663722144
0.06000 0.0295910000 0.5194330000 0.4509760000 0.0004502035 0.0016706321 0.0017023927 4.9573067453 0.1288463189 4.8340863709 0.1607984477
0.07000 0.0278670000 0.4907125000 0.4814205000 0.0005690907 0.0014432087 0.0013759723 4.7343538917 0.1188443715 4.5884029531 0.1460812727
0.08000 0.0268635000 0.4651385000 0.5079980000 0.0006142113 0.0018550593 0.0017805428 4.5299390546 0.0907726974 4.3918949848 0.1459284294
0.09000 0.0258755000 0.4415545000 0.5325700000 0.0005025982 0.0015767170 0.0014704636 4.3295558176 0.0757838950 4.1826114850 0.0937102845
0.10000 0.0246720000 0.4198440000 0.5554840000 0.0005402787 0.0016209724 0.0014647558 4.1653447132 0.0752444789 4.0235167523 0.1340133588
0.11000 0.0236190000 0.3997020000 0.5766790000 0.0004866848 0.0016891748 0.0017680584 4.0079387060 0.0773362795 3.8047627361 0.1038825939
0.12000 0.0228505000 0.3811945000 0.5959550000 0.0004430573 0.0013457828 0.0013166724 3.8684423999 0.0691940643 3.6951487935 0.1114878826
0.13000 0.0217250000 0.3642470000 0.6140280000 0.0003903238 0.0016882944 0.0016329747 3.7336852885 0.0965068716 3.5411589042 0.1083545656
0.14000 0.0210015000 0.3483010000 0.6306975000 0.0005625251 0.0015778363 0.0018148014 3.6181335382 0.0808179468 3.4280029045 0.1246128834
0.15000 0.0202770000 0.3338040000 0.6459190000 0.0003823074 0.0018879184 0.0018890959 3.5204770466 0.0910802199 3.3105769506 0.1427772799
0.16000 0.0196925000 0.3202685000 0.6600390000 0.0004864033 0.0014606641 0.0015861868 3.4243472391 0.0657465828 3.2011704200 0.1272996182
0.17000 0.0189540000 0.3070410000 0.6740050000 0.0004329993 0.0011681470 0.0014087415 3.3305796009 0.0711221394 3.0775101756 0.1203662507
0.18000 0.0183485000 0.2954200000 0.6862315000 0.0003329655 0.0011806243 0.0011394702 3.2335820996 0.0876399143 2.9398230688 0.1003100797
0.19000 0.0178855000 0.2839045000 0.6982100000 0.0004417486 0.0012722689 0.0013128114 3.1032822537 0.0592356128 2.8041913397 0.0788710822
0.20000 0.0172700000 0.2734545000 0.7092755000 0.0004264171 0.0012627642 0.0013661143 3.0409706116 0.0695946250 2.7461290623 0.0926617125
0.21000 0.0166850000 0.2631130000 0.7202020000 0.0004919617 0.0016382728 0.0015158725 2.9667373511 0.0842905046 2.6699568783 0.0896196751
0.22000 0.0161045000 0.2535350000 0.7303605000 0.0004029036 0.0014679542 0.0015206732 2.9302083130 0.0444513391 2.5988927741 0.0882221707
0.23000 0.0158025000 0.2449380000 0.7392595000 0.0003991290 0.0013717473 0.0015571650 2.8429347459 0.0564815679 2.5003915452 0.0875680718
0.24000 0.0152610000 0.2372390000 0.7475000000 0.0003775949 0.0007900493 0.0008596388 2.8070729730 0.0641507418 2.4619993204 0.0985307448
0.25000 0.0149630000 0.2287765000 0.7562605000 0.0003958748 0.0012569356 0.0013422114 2.7241651234 0.0731907161 2.3805358777 0.1083625951
0.26000 0.0145235000 0.2212580000 0.7642185000 0.0002646602 0.0014668427 0.0014683585 2.6753645139 0.0599444372 2.3266804725 0.0844004110
0.27000 0.0141205000 0.2142845000 0.7715950000 0.0003018971 0.0011107204 0.0009813498 2.5919374338 0.0613988584 2.2115665979 0.0825736234
0.28000 0.0138070000 0.2073010000 0.7788920000 0.0004046974 0.0017705274 0.0019484261 2.5512886305 0.0598260597 2.1788421964 0.0947129242
0.29000 0.0134040000 0.2013975000 0.7851985000 0.0004109732 0.0014042150 0.0016078272 2.5299481425 0.0533415496 2.1446231283 0.0771446639
0.30000 0.0131510000 0.1953015000 0.7915475000 0.0004122582 0.0012397677 0.0011646408 2.4799675531 0.0501103361 2.0732028857 0.0945802065
0.31000 0.0127420000 0.1890430000 0.7982150000 0.0003467534 0.0012777904 0.0012756402 2.4178651384 0.0614083164 2.0127018871 0.1019195278
0.32000 0.0125030000 0.1832565000 0.8042405000 0.0004581783 0.0015062825 0.0015491100 2.3683635405 0.0469495381 1.9568285295 0.0793887238
0.33000 0.0121940000 0.1776545000 0.8101515000 0.0003822840 0.0008279745 0.0010037838 2.3461443086 0.0623180511 1.9125707510 0.1050698831
0.34000 0.0117760000 0.1725135000 0.8157105000 0.0002083620 0.0010669597 0.0010119365 2.3241689965 0.0434187211 1.8957914055 0.0982865143
0.35000 0.0116115000 0.1682150000 0.8201735000 0.0002870590 0.0013137271 0.0014359309 2.2787404283 0.0619100430 1.8395911898 0.0891861885
0.36000 0.0112730000 0.1627965000 0.8259305000 0.0003965257 0.0011556146 0.0012854754 2.2367857218 0.0649311725 1.7761628375 0.0868619059
0.37000 0.0110560000 0.1587385000 0.8302055000 0.0002665846 0.0011537047 0.0012082152 2.2141270937 0.0748300379 1.7584001181 0.1093319705
0.38000 0.0109465000 0.1545340000 0.8345195000 0.0003669400 0.0012303975 0.0012845867 2.2062274853 0.0653913905 1.7612408531 0.1007212892
0.39000 0.0106940000 0.1496665000 0.8396395000 0.0003037901 0.0013638733 0.0013310758 2.1472649363 0.0618793560 1.6741972305 0.1045169285
0.40000 0.0102420000 0.1463555000 0.8434025000 0.0003384578 0.0008972618 0.0009830665 2.1344119810 0.0377917528 1.6645216462 0.0665897348
0.41000 0.0102305000 0.1417760000 0.8479935000 0.0003542743 0.0010162335 0.0009984265 2.1071050659 0.0437268843 1.6435339445 0.0885588837
0.42000 0.0099220000 0.1386490000 0.8514290000 0.0002753868 0.0008193765 0.0008791377 2.0528661957 0.0606641392 1.5436038118 0.1082905823
0.43000 0.0096560000 0.1351750000 0.8551690000 0.0003180599 0.0008336066 0.0008417082 2.0687207537 0.0643067649 1.5679194398 0.1058532179
0.44000 0.0095710000 0.1318990000 0.8585300000 0.0002403046 0.0013870336 0.0013829602 2.0333187675 0.0516236236 1.5290706546 0.0779489128
0.45000 0.0093365000 0.1285900000 0.8620735000 0.0003352654 0.0011388498 0.0012587558 2.0154550457 0.0575602520 1.5130648631 0.0832827926
0.46000 0.0091225000 0.1254110000 0.8654665000 0.0002890069 0.0008934610 0.0009448880 1.9685094652 0.0458774479 1.4644956658 0.0991658325
0.47000 0.0089360000 0.1222025000 0.8688615000 0.0002901615 0.0008928834 0.0009903709 1.9752738229 0.0442459267 1.4671982605 0.0758654495
0.48000 0.0087270000 0.1189515000 0.8723215000 0.0003134880 0.0010403859 0.0011203678 1.9584228686 0.0616744016 1.4322140940 0.0900766835
0.49000 0.0086550000 0.1164420000 0.8749030000 0.0002958929 0.0010344111 0.0010868017 1.9329610815 0.0560691563 1.3991076730 0.0809626250
0.50000 0.0082995000 0.1136950000 0.8780055000 0.0002608786 0.0008300127 0.0008995875 1.9002670247 0.0495881749 1.3570968271 0.0873807818
0.51000 0.0082270000 0.1105700000 0.8812030000 0.0003087854 0.0012749200 0.0012372555 1.9000419915 0.0561722723 1.3562891904 0.1007556942
0.52000 0.0081895000 0.1080090000 0.8838015000 0.0002952336 0.0007097138 0.0007737487 1.8708292653 0.0458295171 1.3433274719 0.0838961858
0.53000 0.0080895000 0.1054715000 0.8864390000 0.0003344827 0.0007021117 0.0006690992 1.8614038480 0.0457456562 1.3109720130 0.0803662478
0.54000 0.0079155000 0.1035465000 0.8885380000 0.0002431693 0.0009669391 0.0009315782 1.8497774229 0.0513627610 1.2925777585 0.0846603801
0.55000 0.0077955000 0.1007900000 0.8914145000 0.0003357705 0.0008999942 0.0009171321 1.8233728589 0.0491763322 1.2465620150 0.0825739149
0.56000 0.0074640000 0.0986840000 0.8938520000 0.0002961756 0.0009331181 0.0009543617 1.8107032745 0.0482683911 1.2299550176 0.0794152942
0.57000 0.0072880000 0.0964785000 0.8962335000 0.0002216351 0.0008576914 0.0008956225 1.7894452409 0.0391530141 1.1985638802 0.0795311811
0.58000 0.0072805000 0.0942240000 0.8984955000 0.0002843363 0.0007910646 0.0007739133 1.7870690968 0.0422537806 1.2141255382 0.0925695894
0.59000 0.0071330000 0.0921680000 0.9006990000 0.0002368455 0.0009124265 0.0009067286 1.7691936076 0.0397548684 1.1753034957 0.0794389031
0.60000 0.0070945000 0.0898805000 0.9030250000 0.0002421716 0.0009575543 0.0010264835 1.7542285987 0.0477372727 1.1430657176 0.0881279768
0.61000 0.0068975000 0.0879540000 0.9051485000 0.0002273850 0.0010672611 0.0010779624 1.7397864416 0.0321983563 1.1430942237 0.0793097741
0.62000 0.0068550000 0.0863305000 0.9068145000 0.0002070469 0.0010549756 0.0011295666 1.7156270239 0.0397747482 1.0916372469 0.0774932418
0.63000 0.0066245000 0.0847420000 0.9086335000 0.0002415188 0.0009098155 0.0008841307 1.7064651062 0.0456681697 1.0790690602 0.0789210632
0.64000 0.0065360000 0.0826895000 0.9107745000 0.0003711490 0.0010324650 0.0012500883 1.7014843568 0.0361196938 1.0743399412 0.0580583377
0.65000 0.0063845000 0.0809575000 0.9126580000 0.0001914343 0.0008255006 0.0008914069 1.6770784419 0.0383831179 1.0462552478 0.0706826506
0.66000 0.0063105000 0.0793830000 0.9143065000 0.0001914893 0.0007274114 0.0007746461 1.6832370641 0.0459539044 1.0685427371 0.0821690876
0.67000 0.0062005000 0.0775115000 0.9162880000 0.0001940015 0.0010693937 0.0010744624 1.6515727234 0.0502664844 1.0096449113 0.1132912314
0.68000 0.0061735000 0.0758325000 0.9179940000 0.0002691952 0.0006987950 0.0007576654 1.6481202164 0.0440650075 0.9989372460 0.0879405038
0.69000 0.0060120000 0.0747465000 0.9192415000 0.0002317576 0.0008226739 0.0008603443 1.6380876437 0.0322044507 0.9820382622 0.0640377303
0.70000 0.0059890000 0.0730820000 0.9209290000 0.0003114972 0.0009253142 0.0008939734 1.6339677120 0.0344537213 0.9881346052 0.0675971114
0.71000 0.0058940000 0.0713245000 0.9227815000 0.0002638460 0.0007274865 0.0007879038 1.6207159990 0.0418966847 0.9768748655 0.0789518841
0.72000 0.0056675000 0.0699080000 0.9244245000 0.0002296880 0.0008225928 0.0008499937 1.6223382959 0.0361154937 0.9715003570 0.0773532232
0.73000 0.0056165000 0.0683915000 0.9259920000 0.0001935615 0.0006684410 0.0007213773 1.5932955948 0.0331972073 0.9462637630 0.0775276670
0.74000 0.0055450000 0.0671730000 0.9272820000 0.0001601151 0.0007811806 0.0007522849 1.6100350201 0.0382505185 0.9426834727 0.0722375803
0.75000 0.0055295000 0.0659015000 0.9285690000 0.0002642462 0.0011246158 0.0012268355 1.5762834031 0.0455674016 0.9132499444 0.0784399799
0.76000 0.0053655000 0.0646130000 0.9300215000 0.0001805102 0.0010189732 0.0010432050 1.5729868796 0.0360787563 0.8858689844 0.0724456581
0.77000 0.0053770000 0.0633100000 0.9313130000 0.0002210763 0.0006777284 0.0007068321 1.5775597360 0.0477976418 0.9153091516 0.0919663919
0.78000 0.0051500000 0.0621120000 0.9327380000 0.0002189448 0.0006272547 0.0007142504 1.5735155388 0.0304975318 0.8965075006 0.0762361818
0.79000 0.0051545000 0.0608100000 0.9340355000 0.0002191725 0.0006983891 0.0007241872 1.5501575698 0.0387239950 0.8665250643 0.0594862557
0.80000 0.0049485000 0.0599055000 0.9351460000 0.0002011879 0.0007953515 0.0008227771 1.5547356996 0.0376068045 0.8672223231 0.0670772229
0.81000 0.0050465000 0.0585885000 0.9363650000 0.0001758670 0.0008628733 0.0008246498 1.5537608660 0.0405338655 0.8642102466 0.0754545765
0.82000 0.0048465000 0.0574865000 0.9376670000 0.0002178912 0.0007687945 0.0007907831 1.5213572017 0.0332200290 0.8128903730 0.0384110061
0.83000 0.0047975000 0.0566135000 0.9385890000 0.0002228021 0.0007676298 0.0008346944 1.5222817039 0.0395351789 0.8108495434 0.0630535909
0.84000 0.0047020000 0.0553300000 0.9399680000 0.0001957872 0.0005915190 0.0006068087 1.5132397292 0.0355942141 0.8000947822 0.0811833851
0.85000 0.0047190000 0.0542500000 0.9410310000 0.0001711847 0.0007216574 0.0006903843 1.5113139240 0.0348836130 0.8014767902 0.0672907037
0.86000 0.0046755000 0.0533935000 0.9419310000 0.0002674534 0.0006431851 0.0007138989 1.5125826442 0.0300840609 0.8142380460 0.0634456572
0.87000 0.0045905000 0.0520800000 0.9433295000 0.0002136518 0.0006523641 0.0006851314 1.4988554812 0.0424031136 0.7521519736 0.0594370051
0.88000 0.0044455000 0.0515730000 0.9439815000 0.0002260292 0.0006940279 0.0007777043 1.4905323008 0.0371551376 0.7694612022 0.0677548166
0.89000 0.0043190000 0.0504085000 0.9452725000 0.0002150618 0.0006087111 0.0005633067 1.4913455557 0.0330134923 0.7554194465 0.0656225240
0.90000 0.0044085000 0.0492765000 0.9463150000 0.0002025697 0.0006196372 0.0006484922 1.4706941059 0.0347265721 0.7300022478 0.0656390815
0.91000 0.0042020000 0.0484115000 0.9473865000 0.0001670991 0.0006112479 0.0006700689 1.4800081770 0.0310910057 0.7550477905 0.0628065881
0.92000 0.0041950000 0.0477005000 0.9481045000 0.0001933772 0.0006598602 0.0006499431 1.4708210116 0.0370638519 0.7277923306 0.0658387453
0.93000 0.0040725000 0.0467880000 0.9491395000 0.0001864876 0.0006652313 0.0006885643 1.4634627273 0.0470386437 0.7224383450 0.0808265270
0.94000 0.0040675000 0.0460255000 0.9499070000 0.0002669491 0.0006338228 0.0007347545 1.4597883260 0.0351034429 0.7284155081 0.0623556410
0.95000 0.0039615000 0.0450485000 0.9509900000 0.0002166315 0.0006032916 0.0006559044 1.4634397368 0.0379688080 0.7151603107 0.0721775137
0.96000 0.0039995000 0.0441855000 0.9518150000 0.0001608685 0.0005609154 0.0005981683 1.4596356702 0.0279479886 0.7266685148 0.0522155651
0.97000 0.0037970000 0.0434790000 0.9527240000 0.0001641597 0.0006404595 0.0006174259 1.4434497532 0.0279016756 0.6952811003 0.0636741120
0.98000 0.0038595000 0.0429070000 0.9532335000 0.0001804811 0.0006816783 0.0007101985 1.4482868907 0.0375439018 0.6947733508 0.0766947649
0.99000 0.0038320000 0.0420590000 0.9541090000 0.0001928075 0.0005575123 0.0005453333 1.4197351481 0.0368678015 0.6515349330 0.0693172111
1.00000 0.0036800000 0.0414740000 0.9548460000 0.0002346330 0.0006219528 0.0006630901 1.4345590590 0.0396740505 0.6654815692 0.0810998554
1.01000 0.0036965000 0.0406255000 0.9556780000 0.0002044576 0.0009457688 0.0009582034 1.4277382419 0.0233674644 0.6624292661 0.0485826721
1.02000 0.0037030000 0.0399055000 0.9563915000 0.0001769954 0.0006250514 0.0005999761 1.4271244708 0.0250700092 0.6859826107 0.0731791857
1.03000 0.0035805000 0.0392410000 0.9571785000 0.0001627551 0.0008113789 0.0008628184 1.4202233451 0.0344315783 0.6606730818 0.0674654140
1.04000 0.0035260000 0.0384820000 0.9579920000 0.0002078309 0.0005585281 0.0005293352 1.4145579310 0.0422797301 0.6461308283 0.0713953894
